E [har], kappa [pW/K]0.0->22.0at T_kappa_c=77.0K
8.092952241488098e-07	0.0	
1.6185904482976196e-06	0.0	
2.4278856724464298e-06	4.507714250126517e-09	
3.237180896595239e-06	2.6677316211319496e-08	
4.046476120744049e-06	8.394728833202845e-08	
4.8557713448928595e-06	1.9261303858252233e-07	
5.665066569041669e-06	3.6929515998259773e-07	
6.474361793190478e-06	6.290564941731864e-07	
7.283657017339289e-06	9.878334672881554e-07	
8.092952241488098e-06	1.4596368337014128e-06	
8.902247465636908e-06	2.0598163614794174e-06	
9.711542689785719e-06	2.8014764813155057e-06	
1.0520837913934527e-05	3.6994597948190723e-06	
1.1330133138083339e-05	4.76608686279277e-06	
1.2139428362232147e-05	6.015760281259055e-06	
1.2948723586380956e-05	7.460121183462553e-06	
1.3758018810529768e-05	9.113189573035401e-06	
1.4567314034678578e-05	1.098601661952795e-05	
1.5376609258827386e-05	1.3092288681815031e-05	
1.6185904482976196e-05	1.5442543367847867e-05	
1.6995199707125005e-05	1.8050174567160845e-05	
1.7804494931273815e-05	2.092527116530146e-05	
1.861379015542263e-05	2.4080968873900783e-05	
1.9423085379571438e-05	2.7526963490637866e-05	
2.0232380603720244e-05	3.127616330590938e-05	
2.1041675827869054e-05	3.5337925084955644e-05	
2.1850971052017864e-05	3.972497176510097e-05	
2.2660266276166677e-05	4.444640552647204e-05	
2.3469561500315484e-05	4.9514886937032255e-05	
2.4278856724464293e-05	5.4939537286326856e-05	
2.5088151948613103e-05	6.07335532901037e-05	
2.5897447172761913e-05	6.690760768839991e-05	
2.6706742396910726e-05	7.347995471744009e-05	
2.7516037621059536e-05	8.047969818982334e-05	
2.8325332845208346e-05	8.803565893708317e-05	
2.9134628069357155e-05	0.00010226475387790437	
2.9943923293505965e-05	0.00011733761995718526	
3.075321851765477e-05	0.000126665196495328	
3.156251374180358e-05	0.00013589716589105881	
3.237180896595239e-05	0.0001454695346948347	
3.31811041901012e-05	0.0001554479975254493	
3.399039941425001e-05	0.00016586636032265057	
3.479969463839882e-05	0.00017682680664196285	
3.560898986254763e-05	0.0001891361463857667	
3.641828508669644e-05	0.0003382241382306533	
3.722758031084526e-05	0.0004929489829746733	
3.8036875534994066e-05	0.0005139648610621368	
3.8846170759142876e-05	0.0005308767857470294	
3.965546598329168e-05	0.0005472938880027618	
4.046476120744049e-05	0.0005638480043401318	
4.12740564315893e-05	0.0005807630333488402	
4.208335165573811e-05	0.0005981469719240042	
4.289264687988692e-05	0.0006160663437640377	
4.370194210403573e-05	0.0006345638288851406	
4.451123732818454e-05	0.0006536751721050099	
4.5320532552333354e-05	0.0006734260778917937	
4.6129827776482164e-05	0.0006938428200243558	
4.693912300063097e-05	0.0007149451142354429	
4.7748418224779784e-05	0.0007367556900831581	
4.855771344892859e-05	0.0007592918643471801	
4.93670086730774e-05	0.0007825750051439165	
5.0176303897226206e-05	0.0008066215010761977	
5.098559912137502e-05	0.0008314523331461746	
5.1794894345523826e-05	0.0008570836732735156	
5.2604189569672636e-05	0.0008835366220603912	
5.341348479382145e-05	0.0009108275301516639	
5.4222780017970255e-05	0.0009389779196888549	
5.503207524211907e-05	0.0009680045695518183	
5.5841370466267875e-05	0.0009979296280102092	
5.665066569041669e-05	0.001028770479818375	
5.7459960914565494e-05	0.0010605500557987885	
5.826925613871431e-05	0.0010932864881861963	
5.9078551362863114e-05	0.0011270036237389816	
5.988784658701193e-05	0.0011617204672924686	
6.0697141811160733e-05	0.0011974619068306656	
6.150643703530954e-05	0.0012342479415105424	
6.231573225945835e-05	0.0012721046298421403	
6.312502748360716e-05	0.0013110530970473358	
6.393432270775597e-05	0.0013511207226331726	
6.474361793190478e-05	0.0013923299254541715	
6.555291315605359e-05	0.0014347096224103521	
6.63622083802024e-05	0.001478283815853217	
6.717150360435123e-05	0.0015230834339158784	
6.798079882850002e-05	0.0015691349583623396	
6.879009405264884e-05	0.0016164735865436173	
6.959938927679764e-05	0.001665136733214832	
7.040868450094645e-05	0.0017152862972604575	
7.121797972509526e-05	0.0017667326856389267	
7.202727494924407e-05	0.0018193994516704636	
7.283657017339288e-05	0.0018735277566661465	
7.364586539754169e-05	0.0019291368051033001	
7.445516062169051e-05	0.001986253915419824	
7.526445584583931e-05	0.0020449170679482033	
7.607375106998813e-05	0.0021051597141967604	
7.688304629413693e-05	0.0021670238401476955	
7.769234151828575e-05	0.002230546099509852	
7.850163674243455e-05	0.0022957717184804065	
7.931093196658336e-05	0.002362740406748241	
8.012022719073217e-05	0.0024315007620328514	
8.092952241488098e-05	0.0025020957981052314	
8.173881763902979e-05	0.002574577839459451	
8.25481128631786e-05	0.002648993612667212	
8.335740808732742e-05	0.002725399667188398	
8.416670331147622e-05	0.0028038469926253127	
8.497599853562504e-05	0.002884397019315634	
8.578529375977384e-05	0.002967105727212441	
8.659458898392265e-05	0.0030520402967150195	
8.740388420807146e-05	0.0031392626765208835	
8.821317943222027e-05	0.0032288469784028623	
8.902247465636908e-05	0.003320862475599779	
8.983176988051789e-05	0.003415391871521014	
9.064106510466671e-05	0.003512513711913102	
9.14503603288155e-05	0.0036123217178869733	
9.225965555296433e-05	0.0037149066239262275	
9.306895077711314e-05	0.0038203768723180007	
9.387824600126193e-05	0.003928839957132234	
9.468754122541074e-05	0.004040424977621458	
9.549683644955957e-05	0.004155263728983546	
9.630613167370836e-05	0.0042735160162513455	
9.711542689785717e-05	0.004395351123403571	
9.792472212200598e-05	0.004520977671275419	
9.87340173461548e-05	0.00465062709939856	
9.95433125703036e-05	0.004784591968941955	
0.00010035260779445241	0.004923215874901407	
0.00010116190301860124	0.005066949799648415	
0.00010197119824275005	0.005216361475865091	
0.00010278049346689884	0.005372237162198851	
0.00010358978869104765	0.005535654304464019	
0.00010439908391519648	0.005708223070635929	
0.00010520837913934527	0.005892402368166598	
0.00010601767436349408	0.006092305580723678	
0.0001068269695876429	0.006315266730491784	
0.00010763626481179171	0.006576109027898168	
0.00010844556003594051	0.006909660770063445	
0.00010925485526008932	0.007422943504326971	
0.00011006415048423814	0.008678120698616457	
0.00011087344570838695	0.032318372950322714	
0.00011168274093253575	0.05668880081518476	
0.00011249203615668456	0.05881821281902028	
0.00011330133138083338	0.05955119898950827	
0.00011411062660498218	0.06001973978414132	
0.00011491992182913099	0.06039489742503999	
0.00011572921705327981	0.0607282812184569	
0.00011653851227742862	0.061041515830342986	
0.00011734780750157742	0.06134534909654938	
0.00011815710272572623	0.061646003240084256	
0.00011896639794987505	0.06194744608210791	
0.00011977569317402386	0.06225252172458335	
0.00012058498839817266	0.06256349108200657	
0.00012139428362232147	0.06288242807762304	
0.00012220357884647028	0.06320553082052222	
0.0001230128740706191	0.0635395357638215	
0.0001238221692947679	0.06389250970291159	
0.0001246314645189167	0.06426236976122546	
0.00012544075974306554	0.06465274743632621	
0.00012625005496721433	0.065068884212584	
0.00012705935019136314	0.06551879922808763	
0.00012786864541551195	0.06601542587784215	
0.00012867794063966078	0.06658170603147467	
0.00012948723586380956	0.06726265778869886	
0.00013029653108795837	0.06816186202283551	
0.00013110582631210718	0.06958295408134928	
0.000131915121536256	0.07295138796415376	
0.0001327244167604048	0.10013608584225103	
0.00013353371198455361	0.13041558136394849	
0.00013434300720870245	0.1374104424440559	
0.00013515230243285123	0.1396006415750981	
0.00013596159765700004	0.14090179307075615	
0.00013677089288114885	0.14189135489005442	
0.0001375801881052977	0.1427422698661683	
0.00013838948332944647	0.14352446253507697	
0.00013919877855359528	0.14427262884078706	
0.0001400080737777441	0.145006040758179	
0.0001408173690018929	0.14573674008073537	
0.0001416266642260417	0.14647278302090314	
0.00014243595945019052	0.1472200493076702	
0.00014324525467433936	0.1479830858121738	
0.00014405454989848814	0.14876564210564613	
0.00014486384512263695	0.14957098550538706	
0.00014567314034678576	0.15040207509147602	
0.0001464824355709346	0.15126173133641077	
0.00014729173079508338	0.1521526802839265	
0.0001481010260192322	0.15307767987297485	
0.00014891032124338103	0.1540395091861494	
0.0001497196164675298	0.15504108404804415	
0.00015052891169167862	0.1560854207361756	
0.00015133820691582743	0.15717575278199608	
0.00015214750213997627	0.158315483188959	
0.00015295679736412505	0.15950830738300426	
0.00015376609258827386	0.1607581625320035	
0.00015457538781242267	0.16206935900299574	
0.0001553846830365715	0.1634465338568803	
0.0001561939782607203	0.16489479214509994	
0.0001570032734848691	0.16641967215992065	
0.00015781256870901793	0.16802729748331025	
0.00015862186393316672	0.16972436359404683	
0.00015943115915731553	0.17151830141699173	
0.00016024045438146434	0.17341729853774657	
0.00016104974960561317	0.17543047497064324	
0.00016185904482976196	0.17756795807045483	
0.00016266834005391077	0.17984107133109964	
0.00016347763527805958	0.18226249118599863	
0.00016428693050220839	0.18484644994310356	
0.0001650962257263572	0.18760901687202294	
0.000165905520950506	0.19056831707031097	
0.00016671481617465484	0.19374500165584743	
0.00016752411139880362	0.19716248584610413	
0.00016833340662295243	0.20084770899781418	
0.00016914270184710124	0.2048313982356686	
0.00016995199707125008	0.20914927761191282	
0.00017076129229539886	0.2138423696384339	
0.00017157058751954767	0.21895890978296664	
0.00017237988274369648	0.2245547095126679	
0.0001731891779678453	0.23069619509557282	
0.0001739984731919941	0.2374608749848657	
0.0001748077684161429	0.2449421966474814	
0.00017561706364029175	0.253250187171859	
0.00017642635886444053	0.26251927930121655	
0.00017723565408858934	0.2729092000896895	
0.00017804494931273815	0.2846176314114806	
0.000178854244536887	0.2978812591301173	
0.00017966353976103577	0.31299601140705385	
0.00018047283498518458	0.3303171935792769	
0.00018128213020933342	0.35029000769750085	
0.0001820914254334822	0.37344327473412203	
0.000182900720657631	0.400426709082609	
0.00018371001588177982	0.4319760122123197	
0.00018451931110592866	0.46892313775589606	
0.00018532860633007744	0.512063879047757	
0.00018613790155422628	0.5620311017094984	
0.00018694719677837506	0.618968576146875	
0.00018775649200252387	0.6821993607015621	
0.0001885657872266727	0.7500024121759534	
0.0001893750824508215	0.8196273642016632	
0.0001901843776749703	0.8879863791025235	
0.00019099367289911914	0.9522594859701964	
0.00019180296812326792	1.0106344944952654	
0.00019261226334741673	1.0623072979784192	
0.00019342155857156556	1.1073269060756041	
0.00019423085379571435	1.1462382176166297	
0.00019504014901986318	1.1797806231920662	
0.00019584944424401197	1.208747274745809	
0.00019665873946816078	1.2338485564643782	
0.0001974680346923096	1.2557235224911418	
0.0001982773299164584	1.274892315993444	
0.0001990866251406072	1.2918018767732418	
0.00019989592036475604	1.3068066684654267	
0.00020070521558890483	1.320209194078486	
0.00020151451081305364	1.332249044511564	
0.00020232380603720247	1.3431323629777345	
0.00020313310126135125	1.353023978475018	
0.0002039423964855001	1.3620679193059895	
0.0002047516917096489	1.3703813081007898	
0.00020556098693379768	1.3780687389515451	
0.00020637028215794652	1.3852175562869924	
0.0002071795773820953	1.3919082798435471	
0.0002079888726062441	1.3982111847481815	
0.00020879816783039295	1.4041944104180442	
0.00020960746305454173	1.4099220457719976	
0.00021041675827869054	1.4154614586438896	
0.00021122605350283938	1.4208837645455368	
0.00021203534872698816	1.4262727713044498	
0.000212844643951137	1.4317308178849604	
0.0002136539391752858	1.4373956593111308	
0.0002144632343994346	1.4434627379776424	
0.00021527252962358343	1.4502339421403445	
0.0002160818248477322	1.4582065121101742	
0.00021689112007188102	1.4682753926960355	
0.00021770041529602986	1.4821838537137815	
0.00021850971052017864	1.5036264923412692	
0.00021931900574432745	1.5400495262075822	
0.0002201283009684763	1.5980690646921973	
0.00022093759619262507	1.6627112515677258	
0.0002217468914167739	1.7103483014166647	
0.00022255618664092272	1.738960468421074	
0.0002233654818650715	1.7568798310181066	
0.00022417477708922034	1.7691688553817415	
0.00022498407231336912	1.778282090104566	
0.00022579336753751793	1.7854433168027288	
0.00022660266276166677	1.791322819170031	
0.00022741195798581555	1.7963092039799813	
0.00022822125320996436	1.8006464033780458	
0.0002290305484341132	1.8044925454992415	
0.00022983984365826198	1.8079568488123072	
0.00023064913888241081	1.8111157979021695	
0.00023145843410655962	1.8140259807270525	
0.0002322677293307084	1.8167292867943177	
0.00023307702455485724	1.8192583614467535	
0.00023388631977900603	1.821638395369798	
0.00023469561500315484	1.8238898417273846	
0.00023550491022730367	1.8260289991714291	
0.00023631420545145246	1.8280695519200754	
0.00023712350067560127	1.8300226886520463	
0.0002379327958997501	1.8318980716626785	
0.00023874209112389888	1.8337037706199315	
0.00023955138634804772	1.835446925571813	
0.00024036068157219653	1.8371336089424894	
0.00024116997679634531	1.8387693098213544	
0.00024197927202049415	1.8403587727379103	
0.00024278856724464293	1.8419063698197664	
0.00024359786246879174	1.8434159376508474	
0.00024440715769294055	1.8448910746643201	
0.0002452164529170894	1.8463349853364892	
0.0002460257481412382	1.847750725144824	
0.000246835043365387	1.8491410558256236	
0.0002476443385895358	1.8505086520173215	
0.00024845363381368463	1.8518559687373504	
0.0002492629290378334	1.853185419113334	
0.00025007222426198225	1.8544992540500909	
0.0002508815194861311	1.8557997176222385	
0.00025169081471027987	1.8570889383903648	
0.00025250010993442865	1.8583690672750415	
0.0002533094051585775	1.8596421798025662	
0.00025411870038272627	1.8609104001722225	
0.00025492799560687505	1.8621758137019193	
0.0002557372908310239	1.8634405801026555	
0.00025654658605517273	1.8647068554726758	
0.00025735588127932156	1.86597689737531	
0.00025816517650347035	1.867252995859446	
0.00025897447172761913	1.8685375727291038	
0.00025978376695176797	1.869833121233752	
0.00026059306217591675	1.8711423018875657	
0.00026140235740006553	1.872467890675011	
0.00026221165262421437	1.873812873919018	
0.0002630209478483632	1.8751804050953802	
0.000263830243072512	1.8765739015794474	
0.0002646395382966608	1.8779970104774177	
0.0002654488335208096	1.8794537106423552	
0.00026625812874495844	1.8809482883440167	
0.00026706742396910723	1.8824854488087919	
0.00026787671919325606	1.8840703031122639	
0.0002686860144174049	1.885708494777038	
0.0002694953096415537	1.887406200059447	
0.00027030460486570247	1.8891702770065641	
0.0002711139000898513	1.8910082824350656	
0.0002719231953140001	1.8929286535647454	
0.00027273249053814887	1.8949407466278783	
0.0002735417857622977	1.8970550651547995	
0.00027435108098644654	1.899283327571328	
0.0002751603762105954	1.9016387620061426	
0.00027596967143474416	1.9041362138329683	
0.00027677896665889294	1.9067925353924078	
0.0002775882618830418	1.9096267498120536	
0.00027839755710719056	1.9126605766153033	
0.0002792068523313394	1.915918676165735	
0.0002800161475554882	1.9194293706980472	
0.000280825442779637	1.9232250055261475	
0.0002816347380037858	1.9273429522113765	
0.00028244403322793464	1.9318261394871203	
0.0002832533284520834	1.9367244642028818	
0.00028406262367623226	1.9420955671967044	
0.00028487191890038104	1.9480068305335239	
0.0002856812141245299	1.9545364979492066	
0.0002864905093486787	1.9617765000044143	
0.0002872998045728275	1.9698340292111038	
0.0002881090997969763	1.978835483195159	
0.0002889183950211251	1.9889285483173522	
0.0002897276902452739	2.000287497644576	
0.0002905369854694227	2.0131155637470615	
0.0002913462806935715	2.0276514248403696	
0.00029215557591772036	2.0441707825743323	
0.0002929648711418692	2.0629925191454266	
0.000293774166366018	2.0844761725261027	
0.00029458346159016676	2.109022876823849	
0.0002953927568143156	2.1370609599830552	
0.0002962020520384644	2.1690308565384657	
0.0002970113472626132	2.2053460994506158	
0.00029782064248676205	2.2463482967329926	
0.00029862993771091084	2.2922379408219222	
0.0002994392329350596	2.3430054140173024	
0.00030024852815920846	2.3983681625331053	
0.00030105782338335724	2.457738047206223	
0.0003018671186075061	2.5202490643724538	
0.00030267641383165486	2.584828009198208	
0.0003034857090558037	2.6503278059232405	
0.00030429500427995253	2.715645950145485	
0.0003051042995041013	2.7798436493493	
0.0003059135947282501	2.8421958163056087	
0.00030672288995239893	2.902214066938488	
0.0003075321851765477	2.9596191438420654	
0.0003083414804006965	3.0143049591066697	
0.00030915077562484534	3.066291963464164	
0.00030996007084899417	3.115686630988212	
0.000310769366073143	3.1626493116373102	
0.0003115786612972918	3.2073681065855917	
0.0003123879565214406	3.2500438471945463	
0.0003131972517455894	3.2908766856091742	
0.0003140065469697382	3.3300615849780355	
0.00031481584219388703	3.367782243002206	
0.00031562513741803587	3.404211491439748	
0.00031643443264218465	3.4395087631135977	
0.00031724372786633343	3.4738223082415027	
0.00031805302309048227	3.507288208969568	
0.00031886231831463105	3.5400330035724856	
0.00031967161353877984	3.5721733255086168	
0.00032048090876292867	3.6038183856623776	
0.0003212902039870775	3.635069843328398	
0.00032209949921122635	3.666023980480295	
0.00032290879443537513	3.696771651771357	
0.0003237180896595239	3.727400138679358	
0.00032452738488367275	3.7579931278781173	
0.00032533668010782153	3.7886322850682257	
0.0003261459753319703	3.8193972522157225	
0.00032695527055611915	3.850366990247912	
0.000327764565780268	3.8816198004048377	
0.00032857386100441677	3.9132344772126615	
0.0003293831562285656	3.9452903623677837	
0.0003301924514527144	3.977868334337575	
0.0003310017466768632	4.011050900397199	
0.000331811041901012	4.044923029581446	
0.00033262033712516085	4.079572280926386	
0.0003334296323493097	4.115089461698847	
0.00033423892757345847	4.151568776435503	
0.00033504822279760725	4.189108260211388	
0.0003358575180217561	4.227809911269105	
0.00033666681324590487	4.267779807057673	
0.00033747610847005365	4.3091281503884655	
0.0003382854036942025	4.351968923360372	
0.0003390946989183513	4.396419732377129	
0.00033990399414250016	4.44260079727846	
0.00034071328936664894	4.490634430658608	
0.0003415225845907977	4.540643116384648	
0.00034233187981494656	4.592748426562905	
0.00034314117503909535	4.6470679619983235	
0.0003439504702632442	4.703713548254624	
0.00034475976548739297	4.762786974786354	
0.0003455690607115418	4.824377505862796	
0.0003463783559356906	4.888556771447302	
0.0003471876511598394	4.955376062536913	
0.0003479969463839882	5.024861435519099	
0.00034880624160813704	5.097011890548982	
0.0003496155368322858	5.1717965316419034	
0.00035042483205643466	5.249155179539047	
0.0003512341272805835	5.328999615560738	
0.0003520434225047323	5.411217711578737	
0.00035285271772888106	5.495679480470442	
0.0003536620129530299	5.582243825305651	
0.0003544713081771787	5.670767160217107	
0.00035528060340132747	5.7611090187279	
0.0003560898986254763	5.853138023910755	
0.00035689919384962514	5.946731090433042	
0.000357708489073774	6.0417714488655925	
0.00035851778429792276	6.138138411094677	
0.00035932707952207154	6.235696871039241	
0.0003601363747462204	6.334280753585674	
0.00036094566997036916	6.433681319722534	
0.000361754965194518	6.533633957933274	
0.00036256426041866684	6.633817726513037	
0.0003633735556428156	6.73385546019624	
0.0003641828508669644	6.833332108117689	
0.00036499214609111324	6.93180859468634	
0.000365801441315262	7.028852885520287	
0.00036661073653941086	7.124056430084086	
0.00036742003176355964	7.217062731642877	
0.0003682293269877085	7.307574189642561	
0.0003690386222118573	7.395367384852756	
0.00036984791743600615	7.4802874799363845	
0.0003706572126601549	7.562250131531174	
0.0003714665078843037	7.641228823659708	
0.00037227580310845255	7.717249294436965	
0.0003730850983326013	7.790376366671373	
0.0003738943935567501	7.8607064022013216	
